0.180
0.176
0.157
0.142
0.142
0.152
0.137
0.127
0.161
0.171
0.152
0.166
0.161
0.137
0.127
0.127
0.157
0.157
0.132
0.161
0.152
0.161
0.157
0.152
0.152
0.147
0.127
0.171
0.147
0.132
0.152
0.166
0.157
0.152
0.176
0.152
0.142
0.152
0.157
0.152
0.147
0.158
0.177
0.182
0.197
0.177
0.158
0.187
0.187
0.187
0.182
0.197
0.216
0.231
0.211
0.182
0.201
0.226
0.221
0.216
0.206
0.216
0.221
0.201
0.197
0.177
0.211
0.211
0.206
0.221
0.221
0.187
0.192
0.197
0.187
0.201
0.197
0.187
0.197
0.182
0.177
0.162
0.160
0.174
0.164
0.150
0.160
0.160
0.140
0.155
0.164
0.140
0.150
0.160
0.145
0.145
0.135
0.160
0.169
0.155
0.155
0.150
0.155
0.160
0.150
0.164
0.150
0.164
0.160
0.169
0.164
0.135
0.135
0.169
0.189
0.184
0.184
0.223
0.272
0.325
0.360
0.389
0.467
0.556
0.678
0.771
0.824
0.868
0.873
0.878
0.829
0.766
0.736
0.536
0.302
0.117
-0.019
-0.039
-0.024
-0.048
-0.009
0.014
0.000
0.009
0.029
0.068
0.092
0.107
0.126
0.156
0.161
0.146
0.175
0.170
0.131
0.126
0.156
0.146
0.131
0.141
0.161
0.141
0.146
0.122
0.133
0.128
0.138
0.148
0.148
0.148
0.124
0.128
0.138
0.128
0.153
0.163
0.133
0.133
0.153
0.153
0.133
0.138
0.143
0.153
0.143
0.148
0.167
0.148
0.158
0.158
0.148
0.148
0.163
0.167
0.163
0.158
0.177
0.167
0.172
0.163
0.163
0.158
0.158
0.172
0.167
0.173
0.154
0.144
0.183
0.193
0.173
0.178
0.183
0.178
0.178
0.168
0.173
0.178
0.183
0.203
0.193
0.178
0.178
0.193
0.203
0.203
0.212
0.217
0.227
0.217
0.212
0.217
0.232
0.237
0.232
0.242
0.251
0.256
0.247
0.261
0.247
0.256
0.281
0.276
0.290
0.310
0.278
0.292
0.297
0.288
0.302
0.322
0.302
0.302
0.302
0.302
0.292
0.297
0.302
0.302
0.307
0.307
0.302
0.302
0.288
0.283
0.292
0.292
0.283
0.297
0.297
0.263
0.263
0.292
0.278
0.278
0.283
0.263
0.249
0.263
0.263
0.239
0.229
0.253
0.234
0.249
0.258
0.240
0.215
0.220
0.215
0.206
0.186
0.210
0.225
0.210
0.191
0.191
0.181
0.186
0.181
0.181
0.206
0.191
0.181
0.181
0.176
0.157
0.176
0.186
0.176
0.181
0.176
0.147
0.152
0.157
0.147
0.147
0.137
0.157
0.167
0.167
0.162
0.147
0.157
0.167
0.157
0.162
0.154
0.149
0.169
0.164
0.154
0.164
0.178
0.183
0.183
0.173
0.144
0.173
0.183
0.173
0.198
0.193
0.198
0.188
0.198
0.183
0.173
0.203
0.217
0.203
0.198
0.208
0.193
0.208
0.193
0.183
0.198
0.208
0.208
0.212
0.212
0.222
0.203
0.198
0.203
0.217
0.227
0.223
0.194
0.184
0.199
0.184
0.204
0.209
0.199
0.209
0.218
0.204
0.194
0.179
0.194
0.199
0.194
0.179
0.179
0.184
0.174
0.199
0.179
0.184
0.194
0.184
0.194
0.194
0.165
0.174
0.199
0.199
0.179
0.174
0.179
0.179
0.179
0.179
0.165
0.155
0.165
0.180
0.180
0.176
0.157
0.142
0.142
0.152
0.137
0.127
0.161
0.171
0.152
0.166
0.161
0.137
0.127
0.127
0.157
0.157
0.132
0.161
0.152
0.161
0.157
0.152
0.152
0.147
0.127
0.171
0.147
0.132
0.152
0.166
0.157
0.152
0.176
0.152
0.142
0.152
0.157
0.152
0.147
0.158
0.177
0.182
0.197
0.177
0.158
0.187
0.187
0.187
0.182
0.197
0.216
0.231
0.211
0.182
0.201
0.226
0.221
0.216
0.206
0.216
0.221
0.201
0.197
0.177
0.211
0.211
0.206
0.221
0.221
0.187
0.192
0.197
0.187
0.201
0.197
0.187
0.197
0.182
0.177
0.162
0.160
0.174
0.164
0.150
0.160
0.160
0.140
0.155
0.164
0.140
0.150
0.160
0.145
0.145
0.135
0.160
0.169
0.155
0.155
0.150
0.155
0.160
0.150
0.164
0.150
0.164
0.160
0.169
0.164
0.135
0.135
0.169
0.189
0.184
0.184
0.223
0.272
0.325
0.360
0.389
0.467
0.556
0.678
0.771
0.824
0.868
0.873
0.878
0.829
0.766
0.736
0.536
0.302
0.117
-0.019
-0.039
-0.024
-0.048
-0.009
0.014
0.000
0.009
0.029
0.068
0.092
0.107
0.126
0.156
0.161
0.146
0.175
0.170
0.131
0.126
0.156
0.146
0.131
0.141
0.161
0.141
0.146
0.122
0.133
0.128
0.138
0.148
0.148
0.148
0.124
0.128
0.138
0.128
0.153
0.163
0.133
0.133
0.153
0.153
0.133
0.138
0.143
0.153
0.143
0.148
0.167
0.148
0.158
0.158
0.148
0.148
0.163
0.167
0.163
0.158
0.177
0.167
0.172
0.163
0.163
0.158
0.158
0.172
0.167
0.173
0.154
0.144
0.183
0.193
0.173
0.178
0.183
0.178
0.178
0.168
0.173
0.178
0.183
0.203
0.193
0.178
0.178
0.193
0.203
0.203
0.212
0.217
0.227
0.217
0.212
0.217
0.232
0.237
0.232
0.242
0.251
0.256
0.247
0.261
0.247
0.256
0.281
0.276
0.290
0.310
0.278
0.292
0.297
0.288
0.302
0.322
0.302
0.302
0.302
0.302
0.292
0.297
0.302
0.302
0.307
0.307
0.302
0.302
0.288
0.283
0.292
0.292
0.283
0.297
0.297
0.263
0.263
0.292
0.278
0.278
0.283
0.263
0.249
0.263
0.263
0.239
0.229
0.253
0.234
0.249
0.258
0.240
0.215
0.220
0.215
0.206
0.186
0.210
0.225
0.210
0.191
0.191
0.181
0.186
0.181
0.181
0.206
0.191
0.181
0.181
0.176
0.157
0.176
0.186
0.176
0.181
0.176
0.147
0.152
0.157
0.147
0.147
0.137
0.157
0.167
0.167
0.162
0.147
0.157
0.167
0.157
0.162
0.154
0.149
0.169
0.164
0.154
0.164
0.178
0.183
0.183
0.173
0.144
0.173
0.183
0.173
0.198
0.193
0.198
0.188
0.198
0.183
0.173
0.203
0.217
0.203
0.198
0.208
0.193
0.208
0.193
0.183
0.198
0.208
0.208
0.212
0.212
0.222
0.203
0.198
0.203
0.217
0.227
0.223
0.194
0.184
0.199
0.184
0.204
0.209
0.199
0.209
0.218
0.204
0.194
0.179
0.194
0.199
0.194
0.179
0.179
0.184
0.174
0.199
0.179
0.184
0.194
0.184
0.194
0.194
0.165
0.174
0.199
0.199
0.179
0.174
0.179
0.179
0.179
0.179
0.165
0.155
0.165
0.180
0.180
0.176
0.157
0.142
0.142
0.152
0.137
0.127
0.161
0.171
0.152
0.166
0.161
0.137
0.127
0.127
0.157
0.157
0.132
0.161
0.152
0.161
0.157
0.152
0.152
0.147
0.127
0.171
0.147
0.132
0.152
0.166
0.157
0.152
0.176
0.152
0.142
0.152
0.157
0.152
0.147
0.158
0.177
0.182
0.197
0.177
0.158
0.187
0.187
0.187
0.182
0.197
0.216
0.231
0.211
0.182
0.201
0.226
0.221
0.216
0.206
0.216
0.221
0.201
0.197
0.177
0.211
0.211
0.206
0.221
0.221
0.187
0.192
0.197
0.187
0.201
0.197
0.187
0.197
0.182
0.177
0.162
0.160
0.174
0.164
0.150
0.160
0.160
0.140
0.155
0.164
0.140
0.150
0.160
0.145
0.145
0.135
0.160
0.169
0.155
0.155
0.150
0.155
0.160
0.150
0.164
0.150
0.164
0.160
0.169
0.164
0.135
0.135
0.169
0.189
0.184
0.184
0.223
0.272
0.325
0.360
0.389
0.467
0.556
0.678
0.771
0.824
0.868
0.873
0.878
0.829
0.766
0.736
0.536
0.302
0.117
-0.019
-0.039
-0.024
-0.048
-0.009
0.014
0.000
0.009
0.029
0.068
0.092
0.107
0.126
0.156
0.161
0.146
0.175
0.170
0.131
0.126
0.156
0.146
0.131
0.141
0.161
0.141
0.146
0.122
0.133
0.128
0.138
0.148
0.148
0.148
0.124
0.128
0.138
0.128
0.153
0.163
0.133
0.133
0.153
0.153
0.133
0.138
0.143
0.153
0.143
0.148
0.167
0.148
0.158
0.158
0.148
0.148
0.163
0.167
0.163
0.158
0.177
0.167
0.172
0.163
0.163
0.158
0.158
0.172
0.167
0.173
0.154
0.144
0.183
0.193
0.173
0.178
0.183
0.178
0.178
0.168
0.173
0.178
0.183
0.203
0.193
0.178
0.178
0.193
0.203
0.203
0.212
0.217
0.227
0.217
0.212
0.217
0.232
0.237
0.232
0.242
0.251
0.256
0.247
0.261
0.247
0.256
0.281
0.276
0.290
0.310
0.278
0.292
0.297
0.288
0.302
0.322
0.302
0.302
0.302
0.302
0.292
0.297
0.302
0.302
0.307
0.307
0.302
0.302
0.288
0.283
0.292
0.292
0.283
0.297
0.297
0.263
0.263
0.292
0.278
0.278
0.283
0.263
0.249
0.263
0.263
0.239
0.229
0.253
0.234
0.249
0.258
0.240
0.215
0.220
0.215
0.206
0.186
0.210
0.225
0.210
0.191
0.191
0.181
0.186
0.181
0.181
0.206
0.191
0.181
0.181
0.176
0.157
0.176
0.186
0.176
0.181
0.176
0.147
0.152
0.157
0.147
0.147
0.137
0.157
0.167
0.167
0.162
0.147
0.157
0.167
0.157
0.162
0.154
0.149
0.169
0.164
0.154
0.164
0.178
0.183
0.183
0.173
0.144
0.173
0.183
0.173
0.198
0.193
0.198
0.188
0.198
0.183
0.173
0.203
0.217
0.203
0.198
0.208
0.193
0.208
0.193
0.183
0.198
0.208
0.208
0.212
0.212
0.222
0.203
0.198
0.203
0.217
0.227
0.223
0.194
0.184
0.199
0.184
0.204
0.209
0.199
0.209
0.218
0.204
0.194
0.179
0.194
0.199
0.194
0.179
0.179
0.184
0.174
0.199
0.179
0.184
0.194
0.184
0.194
0.194
0.165
0.174
0.199
0.199
0.179
0.174
0.179
0.179
0.179
0.179
0.165
0.155
0.165
0.180
0.180
0.176
0.157
0.142
0.142
0.152
0.137
0.127
0.161
0.171
0.152
0.166
0.161
0.137
0.127
0.127
0.157
0.157
0.132
0.161
0.152
0.161
0.157
0.152
0.152
0.147
0.127
0.171
0.147
0.132
0.152
0.166
0.157
0.152
0.176
0.152
0.142
0.152
0.157
0.152
0.147
0.158
0.177
0.182
0.197
0.177
0.158
0.187
0.187
0.187
0.182
0.197
0.216
0.231
0.211
0.182
0.201
0.226
0.221
0.216
0.206
0.216
0.221
0.201
0.197
0.177
0.211
0.211
0.206
0.221
0.221
0.187
0.192
0.197
0.187
0.201
0.197
0.187
0.197
0.182
0.177
0.162
0.160
0.174
0.164
0.150
0.160
0.160
0.140
0.155
0.164
0.140
0.150
0.160
0.145
0.145
0.135
0.160
0.169
0.155
0.155
0.150
0.155
0.160
0.150
0.164
0.150
0.164
0.160
0.169
0.164
0.135
0.135
0.169
0.189
0.184
0.184
0.223
0.272
0.325
0.360
0.389
0.467
0.556
0.678
0.771
0.824
0.868
0.873
0.878
0.829
0.766
0.736
0.536
0.302
0.117
-0.019
-0.039
-0.024
-0.048
-0.009
0.014
0.000
0.009
0.029
0.068
0.092
0.107
0.126
0.156
0.161
0.146
0.175
0.170
0.131
0.126
0.156
0.146
0.131
0.141
0.161
0.141
0.146
0.122
0.133
0.128
0.138
0.148
0.148
0.148
0.124
0.128
0.138
0.128
0.153
0.163
0.133
0.133
0.153
0.153
0.133
0.138
0.143
0.153
0.143
0.148
0.167
0.148
0.158
0.158
0.148
0.148
0.163
0.167
0.163
0.158
0.177
0.167
0.172
0.163
0.163
0.158
0.158
0.172
0.167
0.173
0.154
0.144
0.183
0.193
0.173
0.178
0.183
0.178
0.178
0.168
0.173
0.178
0.183
0.203
0.193
0.178
0.178
0.193
0.203
0.203
0.212
0.217
0.227
0.217
0.212
0.217
0.232
0.237
0.232
0.242
0.251
0.256
0.247
0.261
0.247
0.256
0.281
0.276
0.290
0.310
0.278
0.292
0.297
0.288
0.302
0.322
0.302
0.302
0.302
0.302
0.292
0.297
0.302
0.302
0.307
0.307
0.302
0.302
0.288
0.283
0.292
0.292
0.283
0.297
0.297
0.263
0.263
0.292
0.278
0.278
0.283
0.263
0.249
0.263
0.263
0.239
0.229
0.253
0.234
0.249
0.258
0.240
0.215
0.220
0.215
0.206
0.186
0.210
0.225
0.210
0.191
0.191
0.181
0.186
0.181
0.181
0.206
0.191
0.181
0.181
0.176
0.157
0.176
0.186
0.176
0.181
0.176
0.147
0.152
0.157
0.147
0.147
0.137
0.157
0.167
0.167
0.162
0.147
0.157
0.167
0.157
0.162
0.154
0.149
0.169
0.164
0.154
0.164
0.178
0.183
0.183
0.173
0.144
0.173
0.183
0.173
0.198
0.193
0.198
0.188
0.198
0.183
0.173
0.203
0.217
0.203
0.198
0.208
0.193
0.208
0.193
0.183
0.198
0.208
0.208
0.212
0.212
0.222
0.203
0.198
0.203
0.217
0.227
0.223
0.194
0.184
0.199
0.184
0.204
0.209
0.199
0.209
0.218
0.204
0.194
0.179
0.194
0.199
0.194
0.179
0.179
0.184
0.174
0.199
0.179
0.184
0.194
0.184
0.194
0.194
0.165
0.174
0.199
0.199
0.179
0.174
0.179
0.179
0.179
0.179
0.165
0.155
0.165
0.180
0.180
0.176
0.157
0.142
0.142
0.152
0.137
0.127
0.161
0.171
0.152
0.166
0.161
0.137
0.127
0.127
0.157
0.157
0.132
0.161
0.152
0.161
0.157
0.152
0.152
0.147
0.127
0.171
0.147
0.132
0.152
0.166
0.157
0.152
0.176
0.152
0.142
0.152
0.157
0.152
0.147
0.158
0.177
0.182
0.197
0.177
0.158
0.187
0.187
0.187
0.182
0.197
0.216
0.231
0.211
0.182
0.201
0.226
0.221
0.216
0.206
0.216
0.221
0.201
0.197
0.177
0.211
0.211
0.206
0.221
0.221
0.187
0.192
0.197
0.187
0.201
0.197
0.187
0.197
0.182
0.177
0.162
0.160
0.174
0.164
0.150
0.160
0.160
0.140
0.155
0.164
0.140
0.150
0.160
0.145
0.145
0.135
0.160
0.169
0.155
0.155
0.150
0.155
0.160
0.150
0.164
0.150
0.164
0.160
0.169
0.164
0.135
0.135
0.169
0.189
0.184
0.184
0.223
0.272
0.325
0.360
0.389
0.467
0.556
0.678
0.771
0.824
0.868
0.873
0.878
0.829
0.766
0.736
0.536
0.302
0.117
-0.019
-0.039
-0.024
-0.048
-0.009
0.014
0.000
0.009
0.029
0.068
0.092
0.107
0.126
0.156
0.161
0.146
0.175
0.170
0.131
0.126
0.156
0.146
0.131
0.141
0.161
0.141
0.146
0.122
0.133
0.128
0.138
0.148
0.148
0.148
0.124
0.128
0.138
0.128
0.153
0.163
0.133
0.133
0.153
0.153
0.133
0.138
0.143
0.153
0.143
0.148
0.167
0.148
0.158
0.158
0.148
0.148
0.163
0.167
0.163
0.158
0.177
0.167
0.172
0.163
0.163
0.158
0.158
0.172
0.167
0.173
0.154
0.144
0.183
0.193
0.173
0.178
0.183
0.178
0.178
0.168
0.173
0.178
0.183
0.203
0.193
0.178
0.178
0.193
0.203
0.203
0.212
0.217
0.227
0.217
0.212
0.217
0.232
0.237
0.232
0.242
0.251
0.256
0.247
0.261
0.247
0.256
0.281
0.276
0.290
0.310
0.278
0.292
0.297
0.288
0.302
0.322
0.302
0.302
0.302
0.302
0.292
0.297
0.302
0.302
0.307
0.307
0.302
0.302
0.288
0.283
0.292
0.292
0.283
0.297
0.297
0.263
0.263
0.292
0.278
0.278
0.283
0.263
0.249
0.263
0.263
0.239
0.229
0.253
0.234
0.249
0.258
0.240
0.215
0.220
0.215
0.206
0.186
0.210
0.225
0.210
0.191
0.191
0.181
0.186
0.181
0.181
0.206
0.191
0.181
0.181
0.176
0.157
0.176
0.186
0.176
0.181
0.176
0.147
0.152
0.157
0.147
0.147
0.137
0.157
0.167
0.167
0.162
0.147
0.157
0.167
0.157
0.162
0.154
0.149
0.169
0.164
0.154
0.164
0.178
0.183
0.183
0.173
0.144
0.173
0.183
0.173
0.198
0.193
0.198
0.188
0.198
0.183
0.173
0.203
0.217
0.203
0.198
0.208
0.193
0.208
0.193
0.183
0.198
0.208
0.208
0.212
0.212
0.222
0.203
0.198
0.203
0.217
0.227
0.223
0.194
0.184
0.199
0.184
0.204
0.209
0.199
0.209
0.218
0.204
0.194
0.179
0.194
0.199
0.194
0.179
0.179
0.184
0.174
0.199
0.179
0.184
0.194
0.184
0.194
0.194
0.165
0.174
0.199
0.199
0.179
0.174
0.179
0.179
0.179
0.179
0.165
0.155
0.165
0.180
0.180
0.176
0.157
0.142
0.142
0.152
0.137
0.127
0.161
0.171
0.152
0.166
0.161
0.137
0.127
0.127
0.157
0.157
0.132
0.161
0.152
0.161
0.157
0.152
0.152
0.147
0.127
0.171
0.147
0.132
0.152
0.166
0.157
0.152
0.176
0.152
0.142
0.152
0.157
0.152
0.147
0.158
0.177
0.182
0.197
0.177
0.158
0.187
0.187
0.187
0.182
0.197
0.216
0.231
0.211
0.182
0.201
0.226
0.221
0.216
0.206
0.216
0.221
0.201
0.197
0.177
0.211
0.211
0.206
0.221
0.221
0.187
0.192
0.197
0.187
0.201
0.197
0.187
0.197
0.182
0.177
0.162
0.160
0.174
0.164
0.150
0.160
0.160
0.140
0.155
0.164
0.140
0.150
0.160
0.145
0.145
0.135
0.160
0.169
0.155
0.155
0.150
0.155
0.160
0.150
0.164
0.150
0.164
0.160
0.169
0.164
0.135
0.135
0.169
0.189
0.184
0.184
0.223
0.272
0.325
0.360
0.389
0.467
0.556
0.678
0.771
0.824
0.868
0.873
0.878
0.829
0.766
0.736
0.536
0.302
0.117
-0.019
-0.039
-0.024
-0.048
-0.009
0.014
0.000
0.009
0.029
0.068
0.092
0.107
0.126
0.156
0.161
0.146
0.175
0.170
0.131
0.126
0.156
0.146
0.131
0.141
0.161
0.141
0.146
0.122
0.133
0.128
0.138
0.148
0.148
0.148
0.124
0.128
0.138
0.128
0.153
0.163
0.133
0.133
0.153
0.153
0.133
0.138
0.143
0.153
0.143
0.148
0.167
0.148
0.158
0.158
0.148
0.148
0.163
0.167
0.163
0.158
0.177
0.167
0.172
0.163
0.163
0.158
0.158
0.172
0.167
0.173
0.154
0.144
0.183
0.193
0.173
0.178
0.183
0.178
0.178
0.168
0.173
0.178
0.183
0.203
0.193
0.178
0.178
0.193
0.203
0.203
0.212
0.217
0.227
0.217
0.212
0.217
0.232
0.237
0.232
0.242
0.251
0.256
0.247
0.261
0.247
0.256
0.281
0.276
0.290
0.310
0.278
0.292
0.297
0.288
0.302
0.322
0.302
0.302
0.302
0.302
0.292
0.297
0.302
0.302
0.307
0.307
0.302
0.302
0.288
0.283
0.292
0.292
0.283
0.297
0.297
0.263
0.263
0.292
0.278
0.278
0.283
0.263
0.249
0.263
0.263
0.239
0.229
0.253
0.234
0.249
0.258
0.240
0.215
0.220
0.215
0.206
0.186
0.210
0.225
0.210
0.191
0.191
0.181
0.186
0.181
0.181
0.206
0.191
0.181
0.181
0.176
0.157
0.176
0.186
0.176
0.181
0.176
0.147
0.152
0.157
0.147
0.147
0.137
0.157
0.167
0.167
0.162
0.147
0.157
0.167
0.157
0.162
0.154
0.149
0.169
0.164
0.154
0.164
0.178
0.183
0.183
0.173
0.144
0.173
0.183
0.173
0.198
0.193
0.198
0.188
0.198
0.183
0.173
0.203
0.217
0.203
0.198
0.208
0.193
0.208
0.193
0.183
0.198
0.208
0.208
0.212
0.212
0.222
0.203
0.198
0.203
0.217
0.227
0.223
0.194
0.184
0.199
0.184
0.204
0.209
0.199
0.209
0.218
0.204
0.194
0.179
0.194
0.199
0.194
0.179
0.179
0.184
0.174
0.199
0.179
0.184
0.194
0.184
0.194
0.194
0.165
0.174
0.199
0.199
0.179
0.174
0.179
0.179
0.179
0.179
0.165
0.155
0.165
0.180
0.180
0.176
0.157
0.142
0.142
0.152
0.137
0.127
0.161
0.171
0.152
0.166
0.161
0.137
0.127
0.127
0.157
0.157
0.132
0.161
0.152
0.161
0.157
0.152
0.152
0.147
0.127
0.171
0.147
0.132
0.152
0.166
0.157
0.152
0.176
0.152
0.142
0.152
0.157
0.152
0.147
0.158
0.177
0.182
0.197
0.177
0.158
0.187
0.187
0.187
0.182
0.197
0.216
0.231
0.211
0.182
0.201
0.226
0.221
0.216
0.206
0.216
0.221
0.201
0.197
0.177
0.211
0.211
0.206
0.221
0.221
0.187
0.192
0.197
0.187
0.201
0.197
0.187
0.197
0.182
0.177
0.162
0.160
0.174
0.164
0.150
0.160
0.160
0.140
0.155
0.164
0.140
0.150
0.160
0.145
0.145
0.135
0.160
0.169
0.155
0.155
0.150
0.155
0.160
0.150
0.164
0.150
0.164
0.160
0.169
0.164
0.135
0.135
0.169
0.189
0.184
0.184
0.223
0.272
0.325
0.360
0.389
0.467
0.556
0.678
0.771
0.824
0.868
0.873
0.878
0.829
0.766
0.736
0.536
0.302
0.117
-0.019
-0.039
-0.024
-0.048
-0.009
0.014
0.000
0.009
0.029
0.068
0.092
0.107
0.126
0.156
0.161
0.146
0.175
0.170
0.131
0.126
0.156
0.146
0.131
0.141
0.161
0.141
0.146
0.122
0.133
0.128
0.138
0.148
0.148
0.148
0.124
0.128
0.138
0.128
0.153
0.163
0.133
0.133
0.153
0.153
0.133
0.138
0.143
0.153
0.143
0.148
0.167
0.148
0.158
0.158
0.148
0.148
0.163
0.167
0.163
0.158
0.177
0.167
0.172
0.163
0.163
0.158
0.158
0.172
0.167
0.173
0.154
0.144
0.183
0.193
0.173
0.178
0.183
0.178
0.178
0.168
0.173
0.178
0.183
0.203
0.193
0.178
0.178
0.193
0.203
0.203
0.212
0.217
0.227
0.217
0.212
0.217
0.232
0.237
0.232
0.242
0.251
0.256
0.247
0.261
0.247
0.256
0.281
0.276
0.290
0.310
0.278
0.292
0.297
0.288
0.302
0.322
0.302
0.302
0.302
0.302
0.292
0.297
0.302
0.302
0.307
0.307
0.302
0.302
0.288
0.283
0.292
0.292
0.283
0.297
0.297
0.263
0.263
0.292
0.278
0.278
0.283
0.263
0.249
0.263
0.263
0.239
0.229
0.253
0.234
0.249
0.258
0.240
0.215
0.220
0.215
0.206
0.186
0.210
0.225
0.210
0.191
0.191
0.181
0.186
0.181
0.181
0.206
0.191
0.181
0.181
0.176
0.157
0.176
0.186
0.176
0.181
0.176
0.147
0.152
0.157
0.147
0.147
0.137
0.157
0.167
0.167
0.162
0.147
0.157
0.167
0.157
0.162
0.154
0.149
0.169
0.164
0.154
0.164
0.178
0.183
0.183
0.173
0.144
0.173
0.183
0.173
0.198
0.193
0.198
0.188
0.198
0.183
0.173
0.203
0.217
0.203
0.198
0.208
0.193
0.208
0.193
0.183
0.198
0.208
0.208
0.212
0.212
0.222
0.203
0.198
0.203
0.217
0.227
0.223
0.194
0.184
0.199
0.184
0.204
0.209
0.199
0.209
0.218
0.204
0.194
0.179
0.194
0.199
0.194
0.179
0.179
0.184
0.174
0.199
0.179
0.184
0.194
0.184
0.194
0.194
0.165
0.174
0.199
0.199
0.179
0.174
0.179
0.179
0.179
0.179
0.165
0.155
0.165
0.180
0.180
0.176
0.157
0.142
0.142
0.152
0.137
0.127
0.161
0.171
0.152
0.166
0.161
0.137
0.127
0.127
0.157
0.157
0.132
0.161
0.152
0.161
0.157
0.152
0.152
0.147
0.127
0.171
0.147
0.132
0.152
0.166
0.157
0.152
0.176
0.152
0.142
0.152
0.157
0.152
0.147
0.158
0.177
0.182
0.197
0.177
0.158
0.187
0.187
0.187
0.182
0.197
0.216
0.231
0.211
0.182
0.201
0.226
0.221
0.216
0.206
0.216
0.221
0.201
0.197
0.177
0.211
0.211
0.206
0.221
0.221
0.187
0.192
0.197
0.187
0.201
0.197
0.187
0.197
0.182
0.177
0.162
0.160
0.174
0.164
0.150
0.160
0.160
0.140
0.155
0.164
0.140
0.150
0.160
0.145
0.145
0.135
0.160
0.169
0.155
0.155
0.150
0.155
0.160
0.150
0.164
0.150
0.164
0.160
0.169
0.164
0.135
0.135
0.169
0.189
0.184
0.184
0.223
0.272
0.325
0.360
0.389
0.467
0.556
0.678
0.771
0.824
0.868
0.873
0.878
0.829
0.766
0.736
0.536
0.302
0.117
-0.019
-0.039
-0.024
-0.048
-0.009
0.014
0.000
0.009
0.029
0.068
0.092
0.107
0.126
0.156
0.161
0.146
0.175
0.170
0.131
0.126
0.156
0.146
0.131
0.141
0.161
0.141
0.146
0.122
0.133
0.128
0.138
0.148
0.148
0.148
0.124
0.128
0.138
0.128
0.153
0.163
0.133
0.133
0.153
0.153
0.133
0.138
0.143
0.153
0.143
0.148
0.167
0.148
0.158
0.158
0.148
0.148
0.163
0.167
0.163
0.158
0.177
0.167
0.172
0.163
0.163
0.158
0.158
0.172
0.167
0.173
0.154
0.144
0.183
0.193
0.173
0.178
0.183
0.178
0.178
0.168
0.173
0.178
0.183
0.203
0.193
0.178
0.178
0.193
0.203
0.203
0.212
0.217
0.227
0.217
0.212
0.217
0.232
0.237
0.232
0.242
0.251
0.256
0.247
0.261
0.247
0.256
0.281
0.276
0.290
0.310
0.278
0.292
0.297
0.288
0.302
0.322
0.302
0.302
0.302
0.302
0.292
0.297
0.302
0.302
0.307
0.307
0.302
0.302
0.288
0.283
0.292
0.292
0.283
0.297
0.297
0.263
0.263
0.292
0.278
0.278
0.283
0.263
0.249
0.263
0.263
0.239
0.229
0.253
0.234
0.249
0.258
0.240
0.215
0.220
0.215
0.206
0.186
0.210
0.225
0.210
0.191
0.191
0.181
0.186
0.181
0.181
0.206
0.191
0.181
0.181
0.176
0.157
0.176
0.186
0.176
0.181
0.176
0.147
0.152
0.157
0.147
0.147
0.137
0.157
0.167
0.167
0.162
0.147
0.157
0.167
0.157
0.162
0.154
0.149
0.169
0.164
0.154
0.164
0.178
0.183
0.183
0.173
0.144
0.173
0.183
0.173
0.198
0.193
0.198
0.188
0.198
0.183
0.173
0.203
0.217
0.203
0.198
0.208
0.193
0.208
0.193
0.183
0.198
0.208
0.208
0.212
0.212
0.222
0.203
0.198
0.203
0.217
0.227
0.223
0.194
0.184
0.199
0.184
0.204
0.209
0.199
0.209
0.218
0.204
0.194
0.179
0.194
0.199
0.194
0.179
0.179
0.184
0.174
0.199
0.179
0.184
0.194
0.184
0.194
0.194
0.165
0.174
0.199
0.199
0.179
0.174
0.179
0.179
0.179
0.179
0.165
0.155
0.165
0.180
0.180
0.176
0.157
0.142
0.142
0.152
0.137
0.127
0.161
0.171
0.152
0.166
0.161
0.137
0.127
0.127
0.157
0.157
0.132
0.161
0.152
0.161
0.157
0.152
0.152
0.147
0.127
0.171
0.147
0.132
0.152
0.166
0.157
0.152
0.176
0.152
0.142
0.152
0.157
0.152
0.147
0.158
0.177
0.182
0.197
0.177
0.158
0.187
0.187
0.187
0.182
0.197
0.216
0.231
0.211
0.182
0.201
0.226
0.221
0.216
0.206
0.216
0.221
0.201
0.197
0.177
0.211
0.211
0.206
0.221
0.221
0.187
0.192
0.197
0.187
0.201
0.197
0.187
0.197
0.182
0.177
0.162
0.160
0.174
0.164
0.150
0.160
0.160
0.140
0.155
0.164
0.140
0.150
0.160
0.145
0.145
0.135
0.160
0.169
0.155
0.155
0.150
0.155
0.160
0.150
0.164
0.150
0.164
0.160
0.169
0.164
0.135
0.135
0.169
0.189
0.184
0.184
0.223
0.272
0.325
0.360
0.389
0.467
0.556
0.678
0.771
0.824
0.868
0.873
0.878
0.829
0.766
0.736
0.536
0.302
0.117
-0.019
-0.039
-0.024
-0.048
-0.009
0.014
0.000
0.009
0.029
0.068
0.092
0.107
0.126
0.156
0.161
0.146
0.175
0.170
0.131
0.126
0.156
0.146
0.131
0.141
0.161
0.141
0.146
0.122
0.133
0.128
0.138
0.148
0.148
0.148
0.124
0.128
0.138
0.128
0.153
0.163
0.133
0.133
0.153
0.153
0.133
0.138
0.143
0.153
0.143
0.148
0.167
0.148
0.158
0.158
0.148
0.148
0.163
0.167
0.163
0.158
0.177
0.167
0.172
0.163
0.163
0.158
0.158
0.172
0.167
0.173
0.154
0.144
0.183
0.193
0.173
0.178
0.183
0.178
0.178
0.168
0.173
0.178
0.183
0.203
0.193
0.178
0.178
0.193
0.203
0.203
0.212
0.217
0.227
0.217
0.212
0.217
0.232
0.237
0.232
0.242
0.251
0.256
0.247
0.261
0.247
0.256
0.281
0.276
0.290
0.310
0.278
0.292
0.297
0.288
0.302
0.322
0.302
0.302
0.302
0.302
0.292
0.297
0.302
0.302
0.307
0.307
0.302
0.302
0.288
0.283
0.292
0.292
0.283
0.297
0.297
0.263
0.263
0.292
0.278
0.278
0.283
0.263
0.249
0.263
0.263
0.239
0.229
0.253
0.234
0.249
0.258
0.240
0.215
0.220
0.215
0.206
0.186
0.210
0.225
0.210
0.191
0.191
0.181
0.186
0.181
0.181
0.206
0.191
0.181
0.181
0.176
0.157
0.176
0.186
0.176
0.181
0.176
0.147
0.152
0.157
0.147
0.147
0.137
0.157
0.167
0.167
0.162
0.147
0.157
0.167
0.157
0.162
0.154
0.149
0.169
0.164
0.154
0.164
0.178
0.183
0.183
0.173
0.144
0.173
0.183
0.173
0.198
0.193
0.198
0.188
0.198
0.183
0.173
0.203
0.217
0.203
0.198
0.208
0.193
0.208
0.193
0.183
0.198
0.208
0.208
0.212
0.212
0.222
0.203
0.198
0.203
0.217
0.227
0.223
0.194
0.184
0.199
0.184
0.204
0.209
0.199
0.209
0.218
0.204
0.194
0.179
0.194
0.199
0.194
0.179
0.179
0.184
0.174
0.199
0.179
0.184
0.194
0.184
0.194
0.194
0.165
0.174
0.199
0.199
0.179
0.174
0.179
0.179
0.179
0.179
0.165
0.155
0.165
0.180
0.180
0.176
0.157
0.142
0.142
0.152
0.137
0.127
0.161
0.171
0.152
0.166
0.161
0.137
0.127
0.127
0.157
0.157
0.132
0.161
0.152
0.161
0.157
0.152
0.152
0.147
0.127
0.171
0.147
0.132
0.152
0.166
0.157
0.152
0.176
0.152
0.142
0.152
0.157
0.152
0.147
0.158
0.177
0.182
0.197
0.177
0.158
0.187
0.187
0.187
0.182
0.197
0.216
0.231
0.211
0.182
0.201
0.226
0.221
0.216
0.206
0.216
0.221
0.201
0.197
0.177
0.211
0.211
0.206
0.221
0.221
0.187
0.192
0.197
0.187
0.201
0.197
0.187
0.197
0.182
0.177
0.162
0.160
0.174
0.164
0.150
0.160
0.160
0.140
0.155
0.164
0.140
0.150
0.160
0.145
0.145
0.135
0.160
0.169
0.155
0.155
0.150
0.155
0.160
0.150
0.164
0.150
0.164
0.160
0.169
0.164
0.135
0.135
0.169
0.189
0.184
0.184
0.223
0.272
0.325
0.360
0.389
0.467
0.556
0.678
0.771
0.824
0.868
0.873
0.878
0.829
0.766
0.736
0.536
0.302
0.117
-0.019
-0.039
-0.024
-0.048
-0.009
0.014
0.000
0.009
0.029
0.068
0.092
0.107
0.126
0.156
0.161
0.146
0.175
0.170
0.131
0.126
0.156
0.146
0.131
0.141
0.161
0.141
0.146
0.122
0.133
0.128
0.138
0.148
0.148
0.148
0.124
0.128
0.138
0.128
0.153
0.163
0.133
0.133
0.153
0.153
0.133
0.138
0.143
0.153
0.143
0.148
0.167
0.148
0.158
0.158
0.148
0.148
0.163
0.167
0.163
0.158
0.177
0.167
0.172
0.163
0.163
0.158
0.158
0.172
0.167
0.173
0.154
0.144
0.183
0.193
0.173
0.178
0.183
0.178
0.178
0.168
0.173
0.178
0.183
0.203
0.193
0.178
0.178
0.193
0.203
0.203
0.212
0.217
0.227
0.217
0.212
0.217
0.232
0.237
0.232
0.242
0.251
0.256
0.247
0.261
0.247
0.256
0.281
0.276
0.290
0.310
0.278
0.292
0.297
0.288
0.302
0.322
0.302
0.302
0.302
0.302
0.292
0.297
0.302
0.302
0.307
0.307
0.302
0.302
0.288
0.283
0.292
0.292
0.283
0.297
0.297
0.263
0.263
0.292
0.278
0.278
0.283
0.263
0.249
0.263
0.263
0.239
0.229
0.253
0.234
0.249
0.258
0.240
0.215
0.220
0.215
0.206
0.186
0.210
0.225
0.210
0.191
0.191
0.181
0.186
0.181
0.181
0.206
0.191
0.181
0.181
0.176
0.157
0.176
0.186
0.176
0.181
0.176
0.147
0.152
0.157
0.147
0.147
0.137
0.157
0.167
0.167
0.162
0.147
0.157
0.167
0.157
0.162
0.154
0.149
0.169
0.164
0.154
0.164
0.178
0.183
0.183
0.173
0.144
0.173
0.183
0.173
0.198
0.193
0.198
0.188
0.198
0.183
0.173
0.203
0.217
0.203
0.198
0.208
0.193
0.208
0.193
0.183
0.198
0.208
0.208
0.212
0.212
0.222
0.203
0.198
0.203
0.217
0.227
0.223
0.194
0.184
0.199
0.184
0.204
0.209
0.199
0.209
0.218
0.204
0.194
0.179
0.194
0.199
0.194
0.179
0.179
0.184
0.174
0.199
0.179
0.184
0.194
0.184
0.194
0.194
0.165
0.174
0.199
0.199
0.179
0.174
0.179
0.179
0.179
0.179
0.165
0.155
0.165
0.180
0.180
0.176
0.157
0.142
0.142
0.152
0.137
0.127
0.161
0.171
0.152
0.166
0.161
0.137
0.127
0.127
0.157
0.157
0.132
0.161
0.152
0.161
0.157
0.152
0.152
0.147
0.127
0.171
0.147
0.132
0.152
0.166
0.157
0.152
0.176
0.152
0.142
0.152
0.157
0.152
0.147
0.158
0.177
0.182
0.197
0.177
0.158
0.187
0.187
0.187
0.182
0.197
0.216
0.231
0.211
0.182
0.201
0.226
0.221
0.216
0.206
0.216
0.221
0.201
0.197
0.177
0.211
0.211
0.206
0.221
0.221
0.187
0.192
0.197
0.187
0.201
0.197
0.187
0.197
0.182
0.177
0.162
0.160
0.174
0.164
0.150
0.160
0.160
0.140
0.155
0.164
0.140
0.150
0.160
0.145
0.145
0.135
0.160
0.169
0.155
0.155
0.150
0.155
0.160
0.150
0.164
0.150
0.164
0.160
0.169
0.164
0.135
0.135
0.169
0.189
0.184
0.184
0.223
0.272
0.325
0.360
0.389
0.467
0.556
0.678
0.771
0.824
0.868
0.873
0.878
0.829
0.766
0.736
0.536
0.302
0.117
-0.019
-0.039
-0.024
-0.048
-0.009
0.014
0.000
0.009
0.029
0.068
0.092
0.107
0.126
0.156
0.161
0.146
0.175
0.170
0.131
0.126
0.156
0.146
0.131
0.141
0.161
0.141
0.146
0.122
0.133
0.128
0.138
0.148
0.148
0.148
0.124
0.128
0.138
0.128
0.153
0.163
0.133
0.133
0.153
0.153
0.133
0.138
0.143
0.153
0.143
0.148
0.167
0.148
0.158
0.158
0.148
0.148
0.163
0.167
0.163
0.158
0.177
0.167
0.172
0.163
0.163
0.158
0.158
0.172
0.167
0.173
0.154
0.144
0.183
0.193
0.173
0.178
0.183
0.178
0.178
0.168
0.173
0.178
0.183
0.203
0.193
0.178
0.178
0.193
0.203
0.203
0.212
0.217
0.227
0.217
0.212
0.217
0.232
0.237
0.232
0.242
0.251
0.256
0.247
0.261
0.247
0.256
0.281
0.276
0.290
0.310
0.278
0.292
0.297
0.288
0.302
0.322
0.302
0.302
0.302
0.302
0.292
0.297
0.302
0.302
0.307
0.307
0.302
0.302
0.288
0.283
0.292
0.292
0.283
0.297
0.297
0.263
0.263
0.292
0.278
0.278
0.283
0.263
0.249
0.263
0.263
0.239
0.229
0.253
0.234
0.249
0.258
0.240
0.215
0.220
0.215
0.206
0.186
0.210
0.225
0.210
0.191
0.191
0.181
0.186
0.181
0.181
0.206
0.191
0.181
0.181
0.176
0.157
0.176
0.186
0.176
0.181
0.176
0.147
0.152
0.157
0.147
0.147
0.137
0.157
0.167
0.167
0.162
0.147
0.157
0.167
0.157
0.162
0.154
0.149
0.169
0.164
0.154
0.164
0.178
0.183
0.183
0.173
0.144
0.173
0.183
0.173
0.198
0.193
0.198
0.188
0.198
0.183
0.173
0.203
0.217
0.203
0.198
0.208
0.193
0.208
0.193
0.183
0.198
0.208
0.208
0.212
0.212
0.222
0.203
0.198
0.203
0.217
0.227
0.223
0.194
0.184
0.199
0.184
0.204
0.209
0.199
0.209
0.218
0.204
0.194
0.179
0.194
0.199
0.194
0.179
0.179
0.184
0.174
0.199
0.179
0.184
0.194
0.184
0.194
0.194
0.165
0.174
0.199
0.199
0.179
0.174
0.179
0.179
0.179
0.179
0.165
0.155
0.165
0.180
0.180
0.176
0.157
0.142
0.142
0.152
0.137
0.127
0.161
0.171
0.152
0.166
0.161
0.137
0.127
0.127
0.157
0.157
0.132
0.161
0.152
0.161
0.157
0.152
0.152
0.147
0.127
0.171
0.147
0.132
0.152
0.166
0.157
0.152
0.176
0.152
0.142
0.152
0.157
0.152
0.147
0.158
0.177
0.182
0.197
0.177
0.158
0.187
0.187
0.187
0.182
0.197
0.216
0.231
0.211
0.182
0.201
0.226
0.221
0.216
0.206
0.216
0.221
0.201
0.197
0.177
0.211
0.211
0.206
0.221
0.221
0.187
0.192
0.197
0.187
0.201
0.197
0.187
0.197
0.182
0.177
0.162
0.160
0.174
0.164
0.150
0.160
0.160
0.140
0.155
0.164
0.140
0.150
0.160
0.145
0.145
0.135
0.160
0.169
0.155
0.155
0.150
0.155
0.160
0.150
0.164
0.150
0.164
0.160
0.169
0.164
0.135
0.135
0.169
0.189
0.184
0.184
0.223
0.272
0.325
0.360
0.389
0.467
0.556
0.678
0.771
0.824
0.868
0.873
0.878
0.829
0.766
0.736
0.536
0.302
0.117
-0.019
-0.039
-0.024
-0.048
-0.009
0.014
0.000
0.009
0.029
0.068
0.092
0.107
0.126
0.156
0.161
0.146
0.175
0.170
0.131
0.126
0.156
0.146
0.131
0.141
0.161
0.141
0.146
0.122
0.133
0.128
0.138
0.148
0.148
0.148
0.124
0.128
0.138
0.128
0.153
0.163
0.133
0.133
0.153
0.153
0.133
0.138
0.143
0.153
0.143
0.148
0.167
0.148
0.158
0.158
0.148
0.148
0.163
0.167
0.163
0.158
0.177
0.167
0.172
0.163
0.163
0.158
0.158
0.172
0.167
0.173
0.154
0.144
0.183
0.193
0.173
0.178
0.183
0.178
0.178
0.168
0.173
0.178
0.183
0.203
0.193
0.178
0.178
0.193
0.203
0.203
0.212
0.217
0.227
0.217
0.212
0.217
0.232
0.237
0.232
0.242
0.251
0.256
0.247
0.261
0.247
0.256
0.281
0.276
0.290
0.310
0.278
0.292
0.297
0.288
0.302
0.322
0.302
0.302
0.302
0.302
0.292
0.297
0.302
0.302
0.307
0.307
0.302
0.302
0.288
0.283
0.292
0.292
0.283
0.297
0.297
0.263
0.263
0.292
0.278
0.278
0.283
0.263
0.249
0.263
0.263
0.239
0.229
0.253
0.234
0.249
0.258
0.240
0.215
0.220
0.215
0.206
0.186
0.210
0.225
0.210
0.191
0.191
0.181
0.186
0.181
0.181
0.206
0.191
0.181
0.181
0.176
0.157
0.176
0.186
0.176
0.181
0.176
0.147
0.152
0.157
0.147
0.147
0.137
0.157
0.167
0.167
0.162
0.147
0.157
0.167
0.157
0.162
0.154
0.149
0.169
0.164
0.154
0.164
0.178
0.183
0.183
0.173
0.144
0.173
0.183
0.173
0.198
0.193
0.198
0.188
0.198
0.183
0.173
0.203
0.217
0.203
0.198
0.208
0.193
0.208
0.193
0.183
0.198
0.208
0.208
0.212
0.212
0.222
0.203
0.198
0.203
0.217
0.227
0.223
0.194
0.184
0.199
0.184
0.204
0.209
0.199
0.209
0.218
0.204
0.194
0.179
0.194
0.199
0.194
0.179
0.179
0.184
0.174
0.199
0.179
0.184
0.194
0.184
0.194
0.194
0.165
0.174
0.199
0.199
0.179
0.174
0.179
0.179
0.179
0.179
0.165
0.155
0.165
0.180
0.180
0.176
0.157
0.142
0.142
0.152
0.137
0.127
0.161
0.171
0.152
0.166
0.161
0.137
0.127
0.127
0.157
0.157
0.132
0.161
0.152
0.161
0.157
0.152
0.152
0.147
0.127
0.171
0.147
0.132
0.152
0.166
0.157
0.152
0.176
0.152
0.142
0.152
0.157
0.152
0.147
0.158
0.177
0.182
0.197
0.177
0.158
0.187
0.187
0.187
0.182
0.197
0.216
0.231
0.211
0.182
0.201
0.226
0.221
0.216
0.206
0.216
0.221
0.201
0.197
0.177
0.211
0.211
0.206
0.221
0.221
0.187
0.192
0.197
0.187
0.201
0.197
0.187
0.197
